number of 3D points: [mean_t] [std_t] [mean_r] [std_r]
EPNP HYBRID UPNP 
0.200000 0.485819 0.591353 0.121133 0.204027 0.311240 0.257216 0.038571 0.036369 0.719579 5.390023 0.286530 4.850814 
0.400000 0.488075 0.402609 0.118045 0.156179 0.460212 0.498555 0.077355 0.070898 0.595805 2.856363 0.149515 1.668772 
0.600000 0.510196 0.498642 0.122921 0.135939 0.621279 0.765249 0.115041 0.107599 0.767470 7.228344 0.266433 4.724475 
0.800000 0.534814 0.390777 0.130726 0.149920 0.789732 0.838229 0.155539 0.143997 0.754450 5.171590 0.263178 4.159697 
1.000000 0.564332 0.461355 0.136756 0.169418 0.914710 1.006909 0.184255 0.162569 0.736137 4.199707 0.252330 4.205572 
1.200000 0.600893 0.462167 0.143296 0.167326 1.134212 1.386380 0.228421 0.212873 0.840462 5.041554 0.333594 5.210405 
1.400000 0.647510 0.533935 0.149616 0.154556 1.314497 1.544529 0.267896 0.250061 0.922287 7.301681 0.350115 5.402929 
1.600000 0.672304 0.499391 0.152591 0.143209 1.490733 1.777381 0.304575 0.274729 1.088470 7.709083 0.457680 6.578555 
1.800000 0.714028 0.778305 0.155724 0.188839 1.716486 2.571985 0.358759 0.948071 0.998596 6.335241 0.337363 4.885761 
2.000000 0.744418 0.541991 0.168501 0.154052 1.873028 2.192173 0.388148 0.355792 1.028684 6.309938 0.318884 4.287810 
2.200000 0.793676 0.624138 0.176787 0.167897 2.016081 2.505607 0.416127 0.376991 1.008565 5.143223 0.298111 4.134888 
2.400000 0.829348 0.599521 0.186418 0.195736 2.184794 2.473619 0.460629 0.416752 0.963504 3.150873 0.289965 3.916647 
2.600000 0.885826 0.631376 0.190030 0.149289 2.407714 2.765972 0.499541 0.450446 1.064303 4.267685 0.303211 4.214870 
2.800000 0.934462 0.759377 0.200448 0.194323 2.655858 3.115096 0.545022 0.487496 1.187931 5.873946 0.336735 4.161705 
3.000000 0.978497 0.954835 0.213882 0.335988 2.724925 3.017246 0.578008 0.530127 1.174423 4.502131 0.331974 4.019418 
3.200000 1.017089 0.757019 0.217722 0.177076 2.940803 3.404065 0.609661 0.574758 1.367693 6.223875 0.479700 5.904812 
3.400000 1.051199 0.790498 0.227649 0.218716 3.057451 3.569127 0.638264 0.574384 1.179361 3.740287 0.275847 2.731226 
3.600000 1.089535 0.827749 0.234706 0.176884 3.362057 4.201090 0.710416 0.955381 1.243576 3.422196 0.301778 3.416197 
3.800000 1.161132 0.969907 0.249650 0.281447 3.439508 3.867685 0.725094 0.663153 1.482943 8.534009 0.356369 3.771210 
4.000000 1.227119 0.932318 0.252678 0.174355 3.864918 4.710186 0.788647 0.729246 1.450628 4.598342 0.420350 4.905614 
